#                    1                    2                    3                    4                    5                    6                    7
#               Time |               Ekin |               Epot |               Etot |      === Energy ===>
#               [fs] |               [eV] |               [eV] |               [eV] |               [eV] |
   0.000000000000E+000  6.597479202860E-001  1.005944390806E+001  1.071919182835E+001  6.094541289523E-001  9.398449227565E+000  1.005944390806E+001
   5.000000000000E-001  8.707408556807E-001  9.842768804133E+000  1.071350965981E+001  3.820778054549E-001  9.021438734176E+000  9.842768804133E+000
   1.000000000000E+000  1.058436107016E+000  9.653275113444E+000  1.071171122046E+001  2.588712853089E-001  8.727121268947E+000  9.653275113444E+000
   1.500000000000E+000  1.182763527649E+000  9.529889025376E+000  1.071265255302E+001  2.786549491482E-001  8.568988673666E+000  9.529889025376E+000
   2.000000000000E+000  1.248559937184E+000  9.466344226261E+000  1.071490416345E+001  4.304674719519E-001  8.547845529089E+000  9.466344226261E+000
   2.500000000000E+000  1.286486989809E+000  9.431509769135E+000  1.071799675894E+001  6.740340028490E-001  8.631968814796E+000  9.431509769135E+000
   3.000000000000E+000  1.341449173113E+000  9.379605700711E+000  1.072105487382E+001  9.503779272622E-001  8.766907207441E+000  9.379605700711E+000
   3.500000000000E+000  1.452715305715E+000  9.267648929928E+000  1.072036423564E+001  1.196355082002E+000  8.885855154177E+000  9.267648929928E+000
   4.000000000000E+000  1.820894124060E+000  8.899470111583E+000  1.072036423564E+001  1.374525702254E+000  8.899470111583E+000  9.125558400552E+000
   4.500000000000E+000  2.026949401978E+000  8.661201416711E+000  1.068815081869E+001  1.492053065090E+000  8.661201416711E+000  9.141003573868E+000
   5.000000000000E+000  2.327078814216E+000  8.354869118687E+000  1.068194793290E+001  1.614345625602E+000  8.354869118687E+000  9.212337979918E+000
   5.500000000000E+000  2.574504962952E+000  8.090708876427E+000  1.066521383938E+001  1.784561109349E+000  8.090708876427E+000  9.555859774217E+000
   6.000000000000E+000  2.727766001695E+000  7.937860307394E+000  1.066562630909E+001  2.056959968147E+000  7.937860307394E+000  9.560287616041E+000
   6.500000000000E+000  2.792873988149E+000  7.875372316795E+000  1.066824630494E+001  2.405930491037E+000  7.875372316795E+000  9.611619320217E+000
   7.000000000000E+000  2.807969245112E+000  7.863118535396E+000  1.067108778051E+001  2.786805727478E+000  7.863118535396E+000  9.694305608117E+000
   7.500000000000E+000  2.814273450270E+000  7.857319982696E+000  1.067159343297E+001  3.153909791401E+000  7.857319982696E+000  9.771967839168E+000
   8.000000000000E+000  2.823658331844E+000  7.846258536109E+000  1.066991686795E+001  3.496510681721E+000  7.846258536109E+000  9.837741672397E+000
   8.500000000000E+000  2.822341172748E+000  7.847240009908E+000  1.066958118266E+001  3.835629255056E+000  7.847240009908E+000  9.913436006099E+000
   9.000000000000E+000  2.812043498018E+000  7.860244428215E+000  1.067228792623E+001  4.176728185833E+000  7.860244428215E+000  1.000336690045E+001
   9.500000000000E+000  2.827286175745E+000  7.847316109264E+000  1.067460228501E+001  4.487803784533E+000  7.847316109264E+000  1.007318871003E+001
   1.000000000000E+001  2.893448687382E+000  7.779389281411E+000  1.067283796879E+001  4.744841444346E+000  7.779389281411E+000  1.009596434172E+001
   1.050000000000E+001  2.983308451977E+000  7.685359038337E+000  1.066866749031E+001  4.979921794977E+000  7.685359038337E+000  1.010085707643E+001
   1.100000000000E+001  3.036241657687E+000  7.630032605049E+000  1.066627426274E+001  5.258682092997E+000  7.630032605049E+000  1.015132708588E+001
   1.150000000000E+001  3.011983996581E+000  7.655265228776E+000  1.066724922536E+001  5.621452542676E+000  7.655265228776E+000  1.028698486043E+001
   1.200000000000E+001  2.915944686031E+000  7.754237249639E+000  1.067018193567E+001  6.057929564398E+000  7.754237249639E+000  1.049847681888E+001
   1.250000000000E+001  2.783716768291E+000  7.889122596413E+000  1.067283936470E+001  6.525366955805E+000  7.889122596413E+000  1.074531588876E+001
   1.300000000000E+001  2.650821338534E+000  8.023024877522E+000  1.067384621606E+001  6.980877037112E+000  8.023024877522E+000  1.098750593453E+001
   1.350000000000E+001  2.532479837077E+000  8.140710180671E+000  1.067319001775E+001  7.401920548318E+000  8.140710180671E+000  1.120539217634E+001
   1.400000000000E+001  2.888344603528E+000  7.784845414220E+000  1.067319001775E+001  7.784845414220E+000  8.250095606294E+000  1.139899386352E+001
   1.450000000000E+001  2.569961112856E+000  8.108882888950E+000  1.067884400181E+001  8.108882888950E+000  8.441494559168E+000  1.160246898365E+001
   1.500000000000E+001  2.371506999613E+000  8.298823888531E+000  1.067033088814E+001  8.298823888531E+000  8.740405091023E+000  1.177861179797E+001
   1.550000000000E+001  2.243610798923E+000  8.427049080394E+000  1.067065987932E+001  8.427049080394E+000  9.092054952892E+000  1.193172673924E+001
   1.600000000000E+001  2.129588232625E+000  8.201248361329E+000  1.033083659395E+001  8.201248361329E+000  9.900399108283E+000  1.209497184742E+001
   1.650000000000E+001  2.024597463891E+000  8.308099849281E+000  1.033269731317E+001  8.308099849281E+000  1.020315237462E+001  1.216464810602E+001
   1.700000000000E+001  1.960516276109E+000  8.374037837904E+000  1.033455411401E+001  8.374037837904E+000  1.042588639522E+001  1.222834216502E+001
   1.750000000000E+001  1.964343241756E+000  8.370298830494E+000  1.033464207225E+001  8.370298830494E+000  1.054028553736E+001  1.225413678546E+001
   1.800000000000E+001  2.036435859040E+000  8.295443372054E+000  1.033187923109E+001  8.295443372054E+000  1.054694057109E+001  1.223538860457E+001
   1.850000000000E+001  2.137678414998E+000  8.189842976456E+000  1.032752139145E+001  8.189842976456E+000  1.048897980373E+001  1.220768662395E+001
   1.900000000000E+001  2.208121005405E+000  8.116429982591E+000  1.032455098800E+001  8.116429982591E+000  1.043205843777E+001  1.223176260060E+001
   1.950000000000E+001  2.208180319621E+000  8.117096865581E+000  1.032527718520E+001  8.117096865581E+000  1.042062546599E+001  1.235056656918E+001
   2.000000000000E+001  2.149479929336E+000  8.179683385880E+000  1.032916331522E+001  8.179683385880E+000  1.044532401733E+001  1.255486472755E+001
   2.050000000000E+001  2.085058656801E+000  8.247402128280E+000  1.033246078508E+001  8.247402128280E+000  1.045282922993E+001  1.278875264813E+001
   2.100000000000E+001  2.059489414373E+000  8.272309159636E+000  1.033179857401E+001  8.272309159636E+000  1.039925533221E+001  1.293066588989E+001
   2.150000000000E+001  2.066490240844E+000  8.261881741014E+000  1.032837198186E+001  8.261881741014E+000  1.029631957873E+001  1.282481900814E+001
   2.200000000000E+001  2.063016748641E+000  8.263278615635E+000  1.032629536428E+001  8.263278615635E+000  1.019525059964E+001  1.272999053816E+001
   2.250000000000E+001  2.020308030645E+000  8.307188602622E+000  1.032749663327E+001  8.307188602622E+000  1.013061577780E+001  1.268963469261E+001
   2.300000000000E+001  1.950864229263E+000  8.379450274673E+000  1.033031450394E+001  8.379450274673E+000  1.009206607424E+001  1.269034577233E+001
   2.350000000000E+001  1.889314842494E+000  8.442677318294E+000  1.033199216079E+001  8.442677318294E+000  1.004607933349E+001  1.269554331264E+001
   2.400000000000E+001  1.857081484272E+000  8.474475205394E+000  1.033155668967E+001  8.474475205394E+000  9.974078172339E+000  1.268486923643E+001
   2.450000000000E+001  1.847601202569E+000  8.482415854558E+000  1.033001705713E+001  8.482415854558E+000  9.887173464146E+000  1.266902854020E+001
   2.500000000000E+001  1.837691233146E+000  8.490931801358E+000  1.032862303450E+001  8.490931801358E+000  9.812805742551E+000  1.267555639881E+001
   2.550000000000E+001  1.805234185067E+000  8.522714635120E+000  1.032794882019E+001  8.522714635120E+000  9.775964878526E+000  1.272822459282E+001
   2.600000000000E+001  1.740856530885E+000  8.725982194976E+000  1.046683872586E+001  8.725982194976E+000  9.791773857159E+000  1.219893440887E+001
   2.650000000000E+001  1.651532622626E+000  8.817323719307E+000  1.046885634193E+001  8.817323719307E+000  9.859136184853E+000  1.235834083978E+001
   2.700000000000E+001  1.568323145189E+000  8.904175003391E+000  1.047249814858E+001  8.904175003391E+000  9.937200170217E+000  1.252915728966E+001
   2.750000000000E+001  1.543558697465E+000  8.932040276805E+000  1.047559897427E+001  8.932040276805E+000  9.969504273412E+000  1.264876370291E+001
   2.800000000000E+001  1.617817392909E+000  8.857000363279E+000  1.047481775619E+001  8.857000363279E+000  9.909465636618E+000  1.266509666667E+001
   2.850000000000E+001  1.778044324938E+000  8.691577495398E+000  1.046962182034E+001  8.691577495398E+000  9.766993271662E+000  1.258442625523E+001
   2.900000000000E+001  1.951809426480E+000  8.511385450285E+000  1.046319487677E+001  8.511385450285E+000  9.616039638093E+000  1.247893684670E+001
   2.950000000000E+001  2.049082160593E+000  8.410038264733E+000  1.045912042533E+001  8.410038264733E+000  9.550318499709E+000  1.244158452839E+001
   3.000000000000E+001  2.014245674999E+000  8.445258086757E+000  1.045950376176E+001  8.445258086757E+000  9.629736909936E+000  1.253176086943E+001
   3.050000000000E+001  1.859642219226E+000  8.605388286054E+000  1.046503050528E+001  8.605388286054E+000  9.846401795992E+000  1.274105802024E+001
   3.100000000000E+001  1.671944679789E+000  8.801570543059E+000  1.047351522285E+001  8.801570543059E+000  1.011542280775E+001  1.298390474744E+001
   3.150000000000E+001  1.574038664259E+000  8.905059974738E+000  1.047909863900E+001  8.905059974738E+000  1.031071165788E+001  1.313307140671E+001
   3.200000000000E+001  1.643863859120E+000  8.833266158894E+000  1.047713001801E+001  8.833266158894E+000  1.035017804221E+001  1.310498305165E+001
   3.250000000000E+001  1.855340776175E+000  8.614427989406E+000  1.046976876558E+001  8.614427989406E+000  1.026056657957E+001  1.292572154879E+001
   3.300000000000E+001  2.104829012934E+000  8.358134718768E+000  1.046296373170E+001  8.358134718768E+000  1.014864637000E+001  1.270369745688E+001
   3.350000000000E+001  2.289353055065E+000  8.170733461046E+000  1.046008651611E+001  8.170733461046E+000  1.011729027877E+001  1.254593917595E+001
   3.400000000000E+001  2.357326786191E+000  8.103280777952E+000  1.046060756414E+001  8.103280777952E+000  1.021401685705E+001  1.250535598472E+001
   3.450000000000E+001  2.307723323696E+000  8.154916006067E+000  1.046263932976E+001  8.154916006067E+000  1.043472921876E+001  1.258286332314E+001
   3.500000000000E+001  2.166069030081E+000  8.298866566865E+000  1.046493559695E+001  8.298866566865E+000  1.074988545836E+001  1.275252678314E+001
   3.550000000000E+001  1.965854589808E+000  8.501413523017E+000  1.046726811282E+001  8.501413523017E+000  1.112338436892E+001  1.298012661279E+001
   3.600000000000E+001  1.743269194491E+000  8.726615877357E+000  1.046988507185E+001  8.726615877357E+000  1.151714680247E+001  1.322781368735E+001
   3.650000000000E+001  1.538331059965E+000  8.934289156181E+000  1.047262021615E+001  8.934289156181E+000  1.188889807279E+001  1.345237296322E+001
   3.700000000000E+001  1.391126551438E+000  9.083410296247E+000  1.047453684769E+001  9.083410296247E+000  1.219535994870E+001  1.360947876958E+001
   3.750000000000E+001  1.328669642452E+000  9.145933637156E+000  1.047460327961E+001  9.145933637156E+000  1.240575205022E+001  1.366869974511E+001
   3.800000000000E+001  1.351771870727E+000  9.121077659798E+000  1.047284953052E+001  9.121077659798E+000  1.251574677682E+001  1.362882165526E+001
   3.850000000000E+001  1.435145632710E+000  9.035115042368E+000  1.047026067508E+001  9.035115042368E+000  1.254706164553E+001  1.351773198067E+001
   3.900000000000E+001  1.539848772256E+000  8.927775406680E+000  1.046762417894E+001  8.927775406680E+000  1.253412255359E+001  1.337800859679E+001
   3.950000000000E+001  1.625548287268E+000  8.839658325211E+000  1.046520661248E+001  8.839658325211E+000  1.251203147053E+001  1.325307471432E+001
   4.000000000000E+001  1.656809908480E+000  8.806475721537E+000  1.046328563002E+001  8.806475721537E+000  1.251129562301E+001  1.318034235063E+001
   4.050000000000E+001  1.609882748233E+000  8.852946525599E+000  1.046282927383E+001  8.852946525599E+000  1.255334666158E+001  1.318482618532E+001
   4.100000000000E+001  1.487699686055E+000  8.977610601753E+000  1.046531028781E+001  8.977610601753E+000  1.263785237336E+001  1.326467736812E+001
   4.150000000000E+001  1.337120995561E+000  9.133651400812E+000  1.047077239637E+001  9.133651400812E+000  1.272198879672E+001  1.337221712177E+001
   4.200000000000E+001  1.243275854038E+000  9.232788518584E+000  1.047606437262E+001  9.232788518584E+000  1.272198279933E+001  1.341752190987E+001
   4.250000000000E+001  1.282925878244E+000  9.193849401076E+000  1.047677527932E+001  9.193849401076E+000  1.256117383928E+001  1.331714086722E+001
   4.300000000000E+001  1.466320692117E+000  9.005719286438E+000  1.047203997855E+001  9.005719286438E+000  1.223244955198E+001  1.305795926873E+001
   4.350000000000E+001  1.725728816658E+000  8.739730284078E+000  1.046545910074E+001  8.739730284078E+000  1.181022319185E+001  1.271103500381E+001
   4.400000000000E+001  1.962950647655E+000  8.498194544200E+000  1.046114519186E+001  8.498194544200E+000  1.139914983373E+001  1.238093015512E+001
   4.450000000000E+001  2.107108522854E+000  8.353253069974E+000  1.046036159283E+001  8.353253069974E+000  1.107347856303E+001  1.214386342789E+001
   4.500000000000E+001  2.137039103114E+000  8.324834872124E+000  1.046187397524E+001  8.324834872124E+000  1.085536263537E+001  1.202415878427E+001
   4.550000000000E+001  2.067948487619E+000  8.396045523522E+000  1.046399401114E+001  8.396045523522E+000  1.073039526657E+001  1.200843183436E+001
   4.600000000000E+001  1.928281722417E+000  8.537602663514E+000  1.046588438593E+001  8.537602663514E+000  1.067215672813E+001  1.206955517950E+001
   4.650000000000E+001  1.746331567589E+000  8.721336490649E+000  1.046766805824E+001  8.721336490649E+000  1.065585303837E+001  1.218016976238E+001
   4.700000000000E+001  1.549735004756E+000  8.920059425585E+000  1.046979443034E+001  8.920059425585E+000  1.065830246021E+001  1.231285615722E+001
   4.750000000000E+001  1.370120370989E+000  9.102142452350E+000  1.047226282334E+001  9.102142452350E+000  1.065248001591E+001  1.243524064595E+001
   4.800000000000E+001  1.241995913207E+000  9.232186521138E+000  1.047418243435E+001  9.232186521138E+000  1.060787436173E+001  1.251147398274E+001
   4.850000000000E+001  1.190543695610E+000  9.283752939827E+000  1.047429663544E+001  9.283752939827E+000  1.050261423088E+001  1.251579827981E+001
   4.900000000000E+001  1.215308267396E+000  9.256783261084E+000  1.047209152848E+001  9.256783261084E+000  1.034017816341E+001  1.245031631044E+001
   4.950000000000E+001  1.283552341519E+000  9.184624469834E+000  1.046817681135E+001  9.184624469834E+000  1.015589800516E+001  1.235149655632E+001
   5.000000000000E+001  1.338889070714E+000  9.124872515853E+000  1.046376158657E+001  9.124872515853E+000  1.000784846299E+001  1.227980820364E+001
   5.050000000000E+001  1.320908431227E+000  9.139699370335E+000  1.046060780156E+001  9.139699370335E+000  9.957642907379E+000  1.229875193369E+001
   5.100000000000E+001  1.194342629319E+000  9.266986330010E+000  1.046132895933E+001  9.266986330010E+000  1.004221913746E+001  1.244518122298E+001
   5.150000000000E+001  9.856498568686E-001  9.482037167390E+000  1.046768702426E+001  9.482037167390E+000  1.023604390357E+001  1.269101463903E+001
   5.200000000000E+001  7.974472828428E-001  9.678835375839E+000  1.047628265868E+001  9.678835375839E+000  1.043251497676E+001  1.292561865166E+001
   5.250000000000E+001  7.531649058539E-001  9.726166614743E+000  1.047933152060E+001  9.726166614743E+000  1.049995495214E+001  1.301412812401E+001
   5.300000000000E+001  8.964068386854E-001  9.577710422938E+000  1.047411726162E+001  9.577710422938E+000  1.039151900789E+001  1.290952265008E+001
   5.350000000000E+001  1.155467071014E+000  9.310412367977E+000  1.046587943899E+001  9.310412367977E+000  1.018364324371E+001  1.269077729318E+001
   5.400000000000E+001  1.408143354827E+000  9.052232616451E+000  1.046037597128E+001  9.052232616451E+000  1.000400037603E+001  1.248847864634E+001
   5.450000000000E+001  1.564432713404E+000  8.895216784527E+000  1.045964949793E+001  8.895216784527E+000  9.944671488317E+000  1.239597132374E+001
   5.500000000000E+001  1.602775150999E+000  8.859949821502E+000  1.046272497250E+001  8.859949821502E+000  1.002643115241E+001  1.243314012576E+001
   5.550000000000E+001  1.560129463855E+000  8.907154067600E+000  1.046728353145E+001  8.907154067600E+000  1.020994857829E+001  1.255819076955E+001
   5.600000000000E+001  1.498748050910E+000  8.972164055514E+000  1.047091210642E+001  8.972164055514E+000  1.042977931838E+001  1.270282538100E+001
   5.650000000000E+001  1.470322430285E+000  9.001780063107E+000  1.047210249339E+001  9.001780063107E+000  1.063087600845E+001  1.281018704703E+001
   5.700000000000E+001  1.494006224055E+000  8.977039110990E+000  1.047104533504E+001  8.977039110990E+000  1.079127961141E+001  1.285878278806E+001
   5.750000000000E+001  1.557386428022E+000  8.911779714415E+000  1.046916614244E+001  8.911779714415E+000  1.092102591146E+001  1.286164820936E+001
   5.800000000000E+001  1.634389058072E+000  8.833308075310E+000  1.046769713338E+001  8.833308075310E+000  1.104328354617E+001  1.284675615096E+001
   5.850000000000E+001  1.702940099303E+000  8.764045198442E+000  1.046698529775E+001  8.764045198442E+000  1.117650580391E+001  1.283785616174E+001
   5.900000000000E+001  1.750601394242E+000  8.716019065149E+000  1.046662045939E+001  8.716019065149E+000  1.132914573782E+001  1.284810138382E+001
   5.950000000000E+001  1.770120414993E+000  8.696013062534E+000  1.046613347753E+001  8.696013062534E+000  1.150478375920E+001  1.288458340588E+001
   6.000000000000E+001  1.753234821306E+000  8.712165051545E+000  1.046539987285E+001  8.712165051545E+000  1.170847471458E+001  1.295459683530E+001
   6.050000000000E+001  1.689550624509E+000  8.775305435073E+000  1.046485605958E+001  8.775305435073E+000  1.194781536655E+001  1.306676128609E+001
   6.100000000000E+001  1.572999292509E+000  8.892295879209E+000  1.046529517172E+001  8.892295879209E+000  1.222606952194E+001  1.322432103004E+001
   6.150000000000E+001  1.412808118409E+000  9.054437826999E+000  1.046724594541E+001  9.054437826999E+000  1.253054234366E+001  1.341387046325E+001
   6.200000000000E+001  1.239883164207E+000  9.230317673228E+000  1.047020083743E+001  9.230317673228E+000  1.282550638674E+001  1.359926814405E+001
   6.250000000000E+001  1.099477637543E+000  9.373366116786E+000  1.047284375433E+001  9.373366116786E+000  1.305989254504E+001  1.373078248745E+001
   6.300000000000E+001  1.032537255989E+000  9.441518622250E+000  1.047405587824E+001  9.441518622250E+000  1.318776848695E+001  1.376609808810E+001
   6.350000000000E+001  1.058038141865E+000  9.415228610406E+000  1.047326675227E+001  9.415228610406E+000  1.318860138932E+001  1.368805325683E+001
   6.400000000000E+001  1.163779316631E+000  9.306800037722E+000  1.047057935435E+001  9.306800037722E+000  1.307422365709E+001  1.351292790881E+001
   6.450000000000E+001  1.308600790457E+000  9.158417085356E+000  1.046701787581E+001  9.158417085356E+000  1.287885185033E+001  1.328868340879E+001
   6.500000000000E+001  1.439863269238E+000  9.024883972928E+000  1.046474724217E+001  9.024883972928E+000  1.265280396210E+001  1.307415004485E+001
