#                    1                    2                    3                    4                    5                    6                    7
#               Time |      dE          1 |      dE          2 |      dE          3 | f_osc            1 | f_osc            2 | f_osc            3 |
#               [fs] |               [eV] |               [eV] |               [eV] |                 [] |                 [] |                 [] |
   0.000000000000E+000 -9.545195469614E+000 -1.859620955213E+000  0.000000000000E+000 -3.263713287847E-001 -1.714035775847E-004  0.000000000000E+000
   5.000000000000E-001 -9.598452297564E+000 -1.906610136138E+000  0.000000000000E+000 -3.296998724705E-001 -1.142832028698E-004  0.000000000000E+000
   1.000000000000E+000 -9.574990144431E+000 -1.854904664557E+000  0.000000000000E+000 -3.304833187771E-001 -6.926049777109E-005  0.000000000000E+000
   1.500000000000E+000 -9.473151885920E+000 -1.701370047556E+000  0.000000000000E+000 -3.276251243446E-001 -3.421385521442E-005  0.000000000000E+000
   2.000000000000E+000 -9.297364397849E+000 -1.451725380596E+000  0.000000000000E+000 -3.187614507467E-001 -1.416935259556E-005  0.000000000000E+000
   2.500000000000E+000 -9.062949447188E+000 -1.129442969375E+000  0.000000000000E+000 -2.987754989593E-001 -2.913924967475E-005  0.000000000000E+000
   3.000000000000E+000 -8.806297040706E+000 -7.986905985933E-001  0.000000000000E+000 -2.513629446399E-001 -1.124961679351E-004  0.000000000000E+000
   3.500000000000E+000 -8.612296638717E+000 -6.237038245407E-001  0.000000000000E+000 -1.433107380527E-001 -2.284528359012E-004  0.000000000000E+000
   4.000000000000E+000 -8.545534507075E+000 -7.384710060965E-001  0.000000000000E+000 -4.637428146940E-002 -1.797850111542E-004  0.000000000000E+000
   4.500000000000E+000 -8.494606769498E+000 -9.400803559217E-001  0.000000000000E+000 -1.377325752183E-002 -8.238568345575E-005  0.000000000000E+000
   5.000000000000E+000 -8.362562024527E+000 -1.052128401849E+000  0.000000000000E+000 -3.922134990256E-003 -3.165021309314E-005  0.000000000000E+000
   5.500000000000E+000 -8.124785768627E+000 -1.025821475408E+000  0.000000000000E+000 -8.867178881850E-004 -1.366768861677E-005  0.000000000000E+000
   6.000000000000E+000 -7.798702035926E+000 -8.775874563887E-001  0.000000000000E+000 -1.324304284207E-003 -6.148824693641E-006  0.000000000000E+000
   6.500000000000E+000 -7.424700961045E+000 -6.584400703405E-001  0.000000000000E+000 -7.223474879856E-003 -3.996657731188E-006  0.000000000000E+000
   7.000000000000E+000 -7.054653406355E+000 -4.421798611003E-001  0.000000000000E+000 -3.194002667169E-002 -2.060407512842E-005  0.000000000000E+000
   7.500000000000E+000 -6.757698670947E+000 -3.445543928461E-001  0.000000000000E+000 -1.083252033099E-001 -8.894792426890E-005  0.000000000000E+000
   8.000000000000E+000 -6.564480305083E+000 -4.159194389143E-001  0.000000000000E+000 -1.770736282352E-001 -1.723505727221E-004  0.000000000000E+000
   8.500000000000E+000 -6.406550355699E+000 -5.193682712080E-001  0.000000000000E+000 -1.966392156179E-001 -2.490970031525E-004  0.000000000000E+000
   9.000000000000E+000 -6.243698190790E+000 -5.779657659016E-001  0.000000000000E+000 -1.961184050198E-001 -3.327944996539E-004  0.000000000000E+000
   9.500000000000E+000 -6.068623156614E+000 -5.800841149912E-001  0.000000000000E+000 -1.857299849031E-001 -4.244712287784E-004  0.000000000000E+000
   1.000000000000E+001 -5.886950586364E+000 -5.381682625689E-001  0.000000000000E+000 -1.658407001203E-001 -5.250114325537E-004  0.000000000000E+000
   1.050000000000E+001 -5.716059310619E+000 -4.860023553246E-001  0.000000000000E+000 -1.320142704477E-001 -6.316281489429E-004  0.000000000000E+000
   1.100000000000E+001 -5.586675819943E+000 -4.835772849584E-001  0.000000000000E+000 -8.367657373743E-002 -7.045781002967E-004  0.000000000000E+000
   1.150000000000E+001 -5.554082903283E+000 -6.384601471161E-001  0.000000000000E+000 -2.492918172705E-002 -1.030790846492E-003  0.000000000000E+000
   1.200000000000E+001 -5.562550536270E+000 -8.355723150690E-001  0.000000000000E+000 -1.148715768444E-002 -9.610185886548E-004  0.000000000000E+000
   1.250000000000E+001 -5.596359001774E+000 -1.049722986266E+000  0.000000000000E+000 -5.484812308427E-003 -8.984557340192E-004  0.000000000000E+000
   1.300000000000E+001 -5.640136733272E+000 -1.257880973308E+000  0.000000000000E+000 -2.598885054985E-003 -8.487529473753E-004  0.000000000000E+000
   1.350000000000E+001 -5.679623033613E+000 -1.441544244046E+000  0.000000000000E+000 -1.188203814141E-003 -8.139062978739E-004  0.000000000000E+000
   1.400000000000E+001 -5.700528440493E+000 -1.583272989910E+000  0.000000000000E+000 -5.554760984005E-004 -7.979565752889E-004  0.000000000000E+000
   1.450000000000E+001 -5.689684750284E+000 -1.667208195974E+000  0.000000000000E+000 -3.188519098457E-004 -8.063383333210E-004  0.000000000000E+000
   1.500000000000E+001 -5.637054581456E+000 -1.681220066789E+000  0.000000000000E+000 -2.285565197552E-004 -8.519657952707E-004  0.000000000000E+000
   1.550000000000E+001 -5.537413536067E+000 -1.619323893856E+000  0.000000000000E+000 -1.531025133612E-004 -9.578977624425E-004  0.000000000000E+000
   1.600000000000E+001 -5.391216049669E+000 -1.483282218373E+000  0.000000000000E+000 -1.388844852367E-004 -1.175947654521E-003  0.000000000000E+000
   1.650000000000E+001 -5.205402290476E+000 -1.283616242997E+000  0.000000000000E+000 -4.943724674298E-004 -1.592924496989E-003  0.000000000000E+000
   1.700000000000E+001 -4.994372299693E+000 -1.040865539320E+000  0.000000000000E+000 -1.989303324991E-003 -2.350071249041E-003  0.000000000000E+000
   1.750000000000E+001 -4.782013560710E+000 -7.902401876909E-001  0.000000000000E+000 -6.584852072824E-003 -3.635915943166E-003  0.000000000000E+000
   1.800000000000E+001 -4.607607382349E+000 -5.960472216237E-001  0.000000000000E+000 -1.903987681361E-002 -5.362609875810E-003  0.000000000000E+000
   1.850000000000E+001 -4.523675643015E+000 -5.503180910396E-001  0.000000000000E+000 -4.035102614171E-002 -5.963518972472E-003  0.000000000000E+000
   1.900000000000E+001 -4.530942266201E+000 -6.471199332905E-001  0.000000000000E+000 -5.463235612636E-002 -4.773200427791E-003  0.000000000000E+000
   1.950000000000E+001 -4.573786108447E+000 -7.763058094553E-001  0.000000000000E+000 -5.894134234542E-002 -3.466715242780E-003  0.000000000000E+000
   2.000000000000E+001 -4.615823054249E+000 -8.707110879857E-001  0.000000000000E+000 -5.900106936584E-002 -2.518028451118E-003  0.000000000000E+000
   2.050000000000E+001 -4.641298400799E+000 -9.055625413425E-001  0.000000000000E+000 -5.768085724310E-002 -1.855249399522E-003  0.000000000000E+000
   2.100000000000E+001 -4.642458356786E+000 -8.721146103481E-001  0.000000000000E+000 -5.611053117793E-002 -1.395228236850E-003  0.000000000000E+000
   2.150000000000E+001 -4.614936471988E+000 -7.683391407660E-001  0.000000000000E+000 -5.466986262870E-002 -1.088660780983E-003  0.000000000000E+000
   2.200000000000E+001 -4.556774919990E+000 -5.974171787441E-001  0.000000000000E+000 -5.314431529675E-002 -9.097150751905E-004  0.000000000000E+000
   2.250000000000E+001 -4.470972800745E+000 -3.736656047776E-001  0.000000000000E+000 -4.960631669575E-002 -8.516838863121E-004  0.000000000000E+000
   2.300000000000E+001 -4.391362106716E+000 -1.761539601040E-001  0.000000000000E+000 -2.728104341537E-002 -7.829984153195E-004  0.000000000000E+000
   2.350000000000E+001 -4.443617882277E+000 -2.732082260361E-001  0.000000000000E+000 -1.048729632395E-003 -6.576335648728E-005  0.000000000000E+000
   2.400000000000E+001 -4.513936228859E+000 -4.447387815425E-001  0.000000000000E+000 -1.311873907998E-003 -6.062201797209E-005  0.000000000000E+000
   2.450000000000E+001 -4.526723854072E+000 -5.411755640310E-001  0.000000000000E+000 -2.991613528200E-003 -2.408184092280E-004  0.000000000000E+000
   2.500000000000E+001 -4.470062427571E+000 -5.353786576200E-001  0.000000000000E+000 -4.917382050067E-003 -4.069302847220E-004  0.000000000000E+000
   2.550000000000E+001 -4.343880908596E+000 -4.167281013776E-001  0.000000000000E+000 -7.031080166697E-003 -4.285815763450E-004  0.000000000000E+000
   2.600000000000E+001 -4.157180798439E+000 -1.858012936580E-001  0.000000000000E+000 -9.729253818212E-003 -2.250667432883E-004  0.000000000000E+000
   2.650000000000E+001 -4.072578586934E+000 -1.471291470373E-001  0.000000000000E+000 -6.897224246496E-002 -1.713995797465E-004  0.000000000000E+000
   2.700000000000E+001 -4.201293357852E+000 -4.783851461114E-001  0.000000000000E+000 -6.747459032170E-002 -5.101444881770E-004  0.000000000000E+000
   2.750000000000E+001 -4.350425273626E+000 -7.824497045487E-001  0.000000000000E+000 -6.676069194212E-002 -6.692604654910E-004  0.000000000000E+000
   2.800000000000E+001 -4.508261542379E+000 -1.035871646289E+000  0.000000000000E+000 -6.607608241868E-002 -6.703584289109E-004  0.000000000000E+000
   2.850000000000E+001 -4.662855308073E+000 -1.223224367065E+000  0.000000000000E+000 -6.538497640600E-002 -6.262587789073E-004  0.000000000000E+000
   2.900000000000E+001 -4.804729262045E+000 -1.336630407989E+000  0.000000000000E+000 -6.452361997764E-002 -6.541704998026E-004  0.000000000000E+000
   2.950000000000E+001 -4.928001337136E+000 -1.373761078695E+000  0.000000000000E+000 -6.330250909164E-002 -8.174827834558E-004  0.000000000000E+000
   3.000000000000E+001 -5.030153887131E+000 -1.336259606625E+000  0.000000000000E+000 -6.134781044517E-002 -1.121276628334E-003  0.000000000000E+000
   3.050000000000E+001 -5.112044214842E+000 -1.230418218847E+000  0.000000000000E+000 -5.823661880087E-002 -1.543217004781E-003  0.000000000000E+000
   3.100000000000E+001 -5.179125892487E+000 -1.071166408464E+000  0.000000000000E+000 -5.315224383459E-002 -2.060602562432E-003  0.000000000000E+000
   3.150000000000E+001 -5.245365396849E+000 -8.920931485131E-001  0.000000000000E+000 -4.442562998832E-002 -2.615022420192E-003  0.000000000000E+000
   3.200000000000E+001 -5.340285482108E+000 -7.622109058240E-001  0.000000000000E+000 -3.013147692104E-002 -2.898052692943E-003  0.000000000000E+000
   3.250000000000E+001 -5.499221496218E+000 -7.692524010677E-001  0.000000000000E+000 -1.390434155215E-002 -2.351111596608E-003  0.000000000000E+000
   3.300000000000E+001 -5.711837009983E+000 -9.151894935700E-001  0.000000000000E+000 -4.323112251146E-003 -1.315694382787E-003  0.000000000000E+000
   3.350000000000E+001 -5.925098726086E+000 -1.114893477807E+000  0.000000000000E+000 -1.278582515582E-003 -5.091244534397E-004  0.000000000000E+000
   3.400000000000E+001 -6.091712668892E+000 -1.292352887725E+000  0.000000000000E+000 -2.312236180916E-003 -8.549939514515E-005  0.000000000000E+000
   3.450000000000E+001 -6.177971327131E+000 -1.397632809413E+000  0.000000000000E+000 -6.764224431462E-003 -1.279396300022E-005  0.000000000000E+000
   3.500000000000E+001 -6.164663237942E+000 -1.403154921664E+000  0.000000000000E+000 -1.351120811884E-002 -1.578148450710E-004  0.000000000000E+000
   3.550000000000E+001 -6.060419718952E+000 -1.315701882318E+000  0.000000000000E+000 -2.002359169302E-002 -3.116565799300E-004  0.000000000000E+000
   3.600000000000E+001 -5.893461320844E+000 -1.163428692554E+000  0.000000000000E+000 -2.479096584481E-002 -3.584753269052E-004  0.000000000000E+000
   3.650000000000E+001 -5.686631687437E+000 -9.675420355328E-001  0.000000000000E+000 -2.831879314260E-002 -3.036323665609E-004  0.000000000000E+000
   3.700000000000E+001 -5.457268794140E+000 -7.446050833226E-001  0.000000000000E+000 -3.224404722869E-002 -2.103486684849E-004  0.000000000000E+000
   3.750000000000E+001 -5.222416227282E+000 -5.137598444473E-001  0.000000000000E+000 -3.982104601788E-002 -1.606683075148E-004  0.000000000000E+000
   3.800000000000E+001 -5.006227458809E+000 -3.111176838265E-001  0.000000000000E+000 -6.077704460306E-002 -2.731080135362E-004  0.000000000000E+000
   3.850000000000E+001 -4.865478224803E+000 -2.396314845140E-001  0.000000000000E+000 -1.027377048286E-001 -5.315496102914E-004  0.000000000000E+000
   3.900000000000E+001 -4.818466319652E+000 -3.271035391759E-001  0.000000000000E+000 -1.131643854390E-001 -4.474877997609E-004  0.000000000000E+000
   3.950000000000E+001 -4.788596473386E+000 -4.192784257437E-001  0.000000000000E+000 -1.092594500351E-001 -2.690257427681E-004  0.000000000000E+000
   4.000000000000E+001 -4.746281293906E+000 -4.583864388687E-001  0.000000000000E+000 -1.035300788709E-001 -1.127792090312E-004  0.000000000000E+000
   4.050000000000E+001 -4.688714019484E+000 -4.406080907515E-001  0.000000000000E+000 -9.544575016989E-002 -7.426993441493E-005  0.000000000000E+000
   4.100000000000E+001 -4.628741990715E+000 -3.932990046343E-001  0.000000000000E+000 -8.063256197466E-002 -3.872458411702E-004  0.000000000000E+000
   4.150000000000E+001 -4.603470109124E+000 -3.925801206898E-001  0.000000000000E+000 -5.404873268958E-002 -1.274403267890E-003  0.000000000000E+000
   4.200000000000E+001 -4.648891459909E+000 -5.135148494738E-001  0.000000000000E+000 -2.993768304315E-002 -2.173854197316E-003  0.000000000000E+000
   4.250000000000E+001 -4.747217428097E+000 -7.253719084998E-001  0.000000000000E+000 -1.887935946292E-002 -2.743648920832E-003  0.000000000000E+000
   4.300000000000E+001 -4.867698140383E+000 -9.732313508531E-001  0.000000000000E+000 -1.484734825861E-002 -3.178814330965E-003  0.000000000000E+000
   4.350000000000E+001 -4.990508253253E+000 -1.225528221601E+000  0.000000000000E+000 -1.390343049848E-002 -3.585699232612E-003  0.000000000000E+000
   4.400000000000E+001 -5.101520862486E+000 -1.462899729936E+000  0.000000000000E+000 -1.460628797185E-002 -4.001418673312E-003  0.000000000000E+000
   4.450000000000E+001 -5.189378657562E+000 -1.671399228009E+000  0.000000000000E+000 -1.634572341913E-002 -4.445170908854E-003  0.000000000000E+000
   4.500000000000E+001 -5.245249223287E+000 -1.840841361506E+000  0.000000000000E+000 -1.870539522815E-002 -4.918279432585E-003  0.000000000000E+000
   4.550000000000E+001 -5.262992046943E+000 -1.964368132428E+000  0.000000000000E+000 -2.133801964575E-002 -5.417325450622E-003  0.000000000000E+000
   4.600000000000E+001 -5.239239804132E+000 -2.038173111721E+000  0.000000000000E+000 -2.406695597292E-002 -5.957962079534E-003  0.000000000000E+000
   4.650000000000E+001 -5.174478590852E+000 -2.062421458877E+000  0.000000000000E+000 -2.696255844513E-002 -6.585857911509E-003  0.000000000000E+000
   4.700000000000E+001 -5.074638257451E+000 -2.042993023327E+000  0.000000000000E+000 -3.029198491474E-002 -7.359789670548E-003  0.000000000000E+000
   4.750000000000E+001 -4.951935520702E+000 -1.992635723432E+000  0.000000000000E+000 -3.437724588590E-002 -8.323488528543E-003  0.000000000000E+000
   4.800000000000E+001 -4.823564584667E+000 -1.929734100750E+000  0.000000000000E+000 -3.942257073510E-002 -9.460277272583E-003  0.000000000000E+000
   4.850000000000E+001 -4.708060981429E+000 -1.874229816578E+000  0.000000000000E+000 -4.535649684566E-002 -1.067229374329E-002  0.000000000000E+000
   4.900000000000E+001 -4.620759778883E+000 -1.842039982148E+000  0.000000000000E+000 -5.169733604238E-002 -1.178395345025E-002  0.000000000000E+000
   4.950000000000E+001 -4.570449824075E+000 -1.840771297635E+000  0.000000000000E+000 -5.767539748455E-002 -1.264550573580E-002  0.000000000000E+000
   5.000000000000E+001 -4.558669267689E+000 -1.869292849762E+000  0.000000000000E+000 -6.251177672086E-002 -1.324819098761E-002  0.000000000000E+000
   5.050000000000E+001 -4.581619808709E+000 -1.920862890286E+000  0.000000000000E+000 -6.587936602812E-002 -1.369684377991E-002  0.000000000000E+000
   5.100000000000E+001 -4.633546511562E+000 -1.987329933519E+000  0.000000000000E+000 -6.781221029800E-002 -1.416191523879E-002  0.000000000000E+000
   5.150000000000E+001 -4.709479317669E+000 -2.062198714652E+000  0.000000000000E+000 -6.866300556775E-002 -1.476481605253E-002  0.000000000000E+000
   5.200000000000E+001 -4.806156202524E+000 -2.141694677322E+000  0.000000000000E+000 -6.880431598317E-002 -1.555159801616E-002  0.000000000000E+000
   5.250000000000E+001 -4.921976383001E+000 -2.224594201790E+000  0.000000000000E+000 -6.849724514015E-002 -1.653439379881E-002  0.000000000000E+000
   5.300000000000E+001 -5.056690295335E+000 -2.311679950041E+000  0.000000000000E+000 -6.785796435863E-002 -1.768884646543E-002  0.000000000000E+000
   5.350000000000E+001 -5.211020970486E+000 -2.405211928187E+000  0.000000000000E+000 -6.689020602107E-002 -1.888368728881E-002  0.000000000000E+000
   5.400000000000E+001 -5.386374311812E+000 -2.508479772124E+000  0.000000000000E+000 -6.552782930745E-002 -1.994408446140E-002  0.000000000000E+000
   5.450000000000E+001 -5.584365611549E+000 -2.625262873678E+000  0.000000000000E+000 -6.369246493546E-002 -2.065996344693E-002  0.000000000000E+000
   5.500000000000E+001 -5.806134784500E+000 -2.759079838936E+000  0.000000000000E+000 -6.133573760812E-002 -2.082254418875E-002  0.000000000000E+000
   5.550000000000E+001 -6.051416038030E+000 -2.912097164808E+000  0.000000000000E+000 -5.848879782552E-002 -2.028644174090E-002  0.000000000000E+000
   5.600000000000E+001 -6.317501512909E+000 -3.083915156883E+000  0.000000000000E+000 -5.524221608042E-002 -1.900499131862E-002  0.000000000000E+000
   5.650000000000E+001 -6.598401929126E+000 -3.270411995282E+000  0.000000000000E+000 -5.178119323106E-002 -1.707424256897E-002  0.000000000000E+000
   5.700000000000E+001 -6.884519921392E+000 -3.463171209860E+000  0.000000000000E+000 -4.832794777458E-002 -1.470217822124E-002  0.000000000000E+000
   5.750000000000E+001 -7.163162859436E+000 -3.649949460227E+000  0.000000000000E+000 -4.515578321737E-002 -1.217309390034E-002  0.000000000000E+000
   5.800000000000E+001 -7.420114713592E+000 -3.816527745235E+000  0.000000000000E+000 -4.254291622976E-002 -9.772402240221E-003  0.000000000000E+000
   5.850000000000E+001 -7.641878953119E+000 -3.949532537760E+000  0.000000000000E+000 -4.074560566342E-002 -7.717097448356E-003  0.000000000000E+000
   5.900000000000E+001 -7.818092068050E+000 -4.039547169708E+000  0.000000000000E+000 -3.992487717465E-002 -6.143383081722E-003  0.000000000000E+000
   5.950000000000E+001 -7.943396572286E+000 -4.083546709359E+000  0.000000000000E+000 -4.009732070357E-002 -5.062730792712E-003  0.000000000000E+000
   6.000000000000E+001 -8.018056247540E+000 -4.085478358422E+000  0.000000000000E+000 -4.111357608348E-002 -4.400710558307E-003  0.000000000000E+000
   6.050000000000E+001 -8.046903743066E+000 -4.054592164249E+000  0.000000000000E+000 -4.263790124755E-002 -4.043597224701E-003  0.000000000000E+000
   6.100000000000E+001 -8.037074471478E+000 -4.002059379521E+000  0.000000000000E+000 -4.426839568481E-002 -3.874736971177E-003  0.000000000000E+000
   6.150000000000E+001 -7.995448232535E+000 -3.937610188295E+000  0.000000000000E+000 -4.561261650577E-002 -3.801559612767E-003  0.000000000000E+000
   6.200000000000E+001 -7.927248738453E+000 -3.867865346118E+000  0.000000000000E+000 -4.635678337096E-002 -3.762348686420E-003  0.000000000000E+000
   6.250000000000E+001 -7.836044598957E+000 -3.796674616175E+000  0.000000000000E+000 -4.630395971390E-002 -3.721450402205E-003  0.000000000000E+000
   6.300000000000E+001 -7.724527384542E+000 -3.726311403463E+000  0.000000000000E+000 -4.535011853574E-002 -3.672278667431E-003  0.000000000000E+000
   6.350000000000E+001 -7.595129684081E+000 -3.658582440467E+000  0.000000000000E+000 -4.355398518661E-002 -3.606865941545E-003  0.000000000000E+000
   6.400000000000E+001 -7.450369802303E+000 -3.595560665920E+000  0.000000000000E+000 -4.101304180779E-002 -3.535297003479E-003  0.000000000000E+000
   6.450000000000E+001 -7.292991386853E+000 -3.539989795492E+000  0.000000000000E+000 -3.792394050375E-002 -3.451075479928E-003  0.000000000000E+000
   6.500000000000E+001 -7.126026041679E+000 -3.495445995510E+000  0.000000000000E+000 -3.444415517189E-002 -3.353765833324E-003  0.000000000000E+000
