#                    1                    2                    3                    4                    5
#               Time |      f_osc (state) |       === f_osc ===>
#               [fs] |                 [] |                 [] |
   0.000000000000E+000  2.968922284178E-001  0.000000000000E+000  2.730733266754E-002  2.968922284178E-001
   5.000000000000E-001  2.658006592176E-001  0.000000000000E+000  4.911123640772E-002  2.658006592176E-001
   1.000000000000E+000  2.221468353682E-001  0.000000000000E+000  8.143685818156E-002  2.221468353682E-001
   1.500000000000E+000  1.684485580105E-001  0.000000000000E+000  1.224342730056E-001  1.684485580105E-001
   2.000000000000E+000  1.161685242144E-001  0.000000000000E+000  1.615011024137E-001  1.161685242144E-001
   2.500000000000E+000  7.667330306919E-002  0.000000000000E+000  1.880095889202E-001  7.667330306919E-002
   3.000000000000E+000  5.127531882249E-002  0.000000000000E+000  2.010565658805E-001  5.127531882249E-002
   3.500000000000E+000  3.573696152516E-002  0.000000000000E+000  2.047868676959E-001  3.573696152516E-002
   4.000000000000E+000  2.564159114927E-002  0.000000000000E+000  2.017673163745E-001  2.564159114927E-002
   4.500000000000E+000  1.553750365992E-002  0.000000000000E+000  1.760460261040E-001  1.553750365992E-002
   5.000000000000E+000  1.306278847132E-002  0.000000000000E+000  1.694031419149E-001  1.306278847132E-002
   5.500000000000E+000  1.113847168773E-002  0.000000000000E+000  1.637054944806E-001  1.113847168773E-002
   6.000000000000E+000  8.105041141501E-003  0.000000000000E+000  1.603784045746E-001  8.105041141501E-003
   6.500000000000E+000  4.648194757268E-003  0.000000000000E+000  1.568370677888E-001  4.648194757268E-003
   7.000000000000E+000  2.307523465337E-003  0.000000000000E+000  1.517157570061E-001  2.307523465337E-003
   7.500000000000E+000  1.203941561436E-003  0.000000000000E+000  1.456845248097E-001  1.203941561436E-003
   8.000000000000E+000  1.349831437263E-003  0.000000000000E+000  1.391440961606E-001  1.349831437263E-003
   8.500000000000E+000  3.278697775337E-003  0.000000000000E+000  1.313498825926E-001  3.278697775337E-003
   9.000000000000E+000  8.439373886852E-003  0.000000000000E+000  1.207659894399E-001  8.439373886852E-003
   9.500000000000E+000  1.936821400454E-002  0.000000000000E+000  1.048055706962E-001  1.936821400454E-002
   1.000000000000E+001  3.728343102007E-002  0.000000000000E+000  8.217177859125E-002  3.728343102007E-002
   1.050000000000E+001  5.666404460952E-002  0.000000000000E+000  5.825084023796E-002  5.666404460952E-002
   1.100000000000E+001  6.998013669083E-002  0.000000000000E+000  4.042910536352E-002  6.998013669083E-002
   1.150000000000E+001  7.633865486993E-002  0.000000000000E+000  2.954176332451E-002  7.633865486993E-002
   1.200000000000E+001  7.812007713465E-002  0.000000000000E+000  2.328965532273E-002  7.812007713465E-002
   1.250000000000E+001  7.734931775144E-002  0.000000000000E+000  1.983103494492E-002  7.734931775144E-002
   1.300000000000E+001  7.525035402618E-002  0.000000000000E+000  1.817193304677E-002  7.525035402618E-002
   1.350000000000E+001  7.249661902306E-002  0.000000000000E+000  1.785886706758E-002  7.249661902306E-002
   1.400000000000E+001  6.936898453927E-002  0.000000000000E+000  1.875852086393E-002  6.936898453927E-002
   1.450000000000E+001  6.580199091001E-002  0.000000000000E+000  2.095988648786E-002  6.580199091001E-002
   1.500000000000E+001  6.141696697287E-002  0.000000000000E+000  2.472278825866E-002  6.141696697287E-002
   1.550000000000E+001  5.567427181514E-002  0.000000000000E+000  3.034411927458E-002  5.567427181514E-002
   1.600000000000E+001  4.829049315811E-002  0.000000000000E+000  3.783031882633E-002  4.829049315811E-002
   1.650000000000E+001  3.973044232824E-002  0.000000000000E+000  4.650068541512E-002  3.973044232824E-002
   1.700000000000E+001  3.107022310474E-002  0.000000000000E+000  5.519880311859E-002  3.107022310474E-002
   1.750000000000E+001  2.315455613867E-002  0.000000000000E+000  6.313312715497E-002  2.315455613867E-002
   1.800000000000E+001  1.602241122328E-002  0.000000000000E+000  7.031332459607E-002  1.602241122328E-002
   1.850000000000E+001  8.928419513151E-003  0.000000000000E+000  7.751910303565E-002  8.928419513151E-003
   1.900000000000E+001  1.801721879937E-003  0.000000000000E+000  8.497339029091E-002  1.801721879937E-003
   1.950000000000E+001  2.662277572724E-002  0.000000000000E+000  6.101354196433E-002  2.662277572724E-002
   2.000000000000E+001  6.054643487468E-002  0.000000000000E+000  2.863098946045E-002  6.054643487468E-002
   2.050000000000E+001  7.241152868718E-002  0.000000000000E+000  1.905353418592E-002  7.241152868718E-002
   2.100000000000E+001  7.998358617766E-002  0.000000000000E+000  1.454252821859E-002  7.998358617766E-002
   2.150000000000E+001  8.655972998469E-002  0.000000000000E+000  1.167807722528E-002  8.655972998469E-002
   2.200000000000E+001  9.279389730859E-002  0.000000000000E+000  9.575875287656E-003  9.279389730859E-002
   2.250000000000E+001  9.871073048534E-002  0.000000000000E+000  7.920274175415E-003  9.871073048534E-002
   2.300000000000E+001  1.041340131574E-001  0.000000000000E+000  6.575545037607E-003  1.041340131574E-001
   2.350000000000E+001  1.088172106772E-001  0.000000000000E+000  5.497119855926E-003  1.088172106772E-001
   2.400000000000E+001  1.124861113126E-001  0.000000000000E+000  4.713598369748E-003  1.124861113126E-001
   2.450000000000E+001  1.148009980302E-001  0.000000000000E+000  4.410379749450E-003  1.148009980302E-001
   2.500000000000E+001  1.143138603141E-001  0.000000000000E+000  6.008485027967E-003  1.143138603141E-001
   2.550000000000E+001  1.966474933490E-002  0.000000000000E+000  1.009113760846E-001  1.966474933490E-002
   2.600000000000E+001  1.184705369904E-001  0.000000000000E+000  1.184705369904E-001  1.731504334560E-003
   2.650000000000E+001  1.151910735900E-001  0.000000000000E+000  1.151910735900E-001  1.333860935187E-003
   2.700000000000E+001  1.104328437372E-001  0.000000000000E+000  1.104328437372E-001  9.371851135515E-004
   2.750000000000E+001  1.053169359340E-001  0.000000000000E+000  1.053169359340E-001  7.344749757478E-004
   2.800000000000E+001  9.992354306202E-002  0.000000000000E+000  9.992354306202E-002  1.193157715683E-003
   2.850000000000E+001  9.424493083063E-002  0.000000000000E+000  9.424493083063E-002  3.998194003955E-003
   2.900000000000E+001  8.772747653678E-002  0.000000000000E+000  8.772747653678E-002  1.048941519665E-002
   2.950000000000E+001  7.940822223112E-002  0.000000000000E+000  7.940822223112E-002  1.836072982199E-002
   3.000000000000E+001  6.901864330143E-002  0.000000000000E+000  6.901864330143E-002  2.465754659705E-002
   3.050000000000E+001  5.723311411252E-002  0.000000000000E+000  5.723311411252E-002  2.781476335000E-002
   3.100000000000E+001  4.508811592915E-002  0.000000000000E+000  4.508811592915E-002  2.745050416852E-002
   3.150000000000E+001  3.345772884942E-002  0.000000000000E+000  3.345772884942E-002  2.403889784307E-002
   3.200000000000E+001  2.296510534691E-002  0.000000000000E+000  2.296510534691E-002  1.870762917604E-002
   3.250000000000E+001  1.398690295825E-002  0.000000000000E+000  1.398690295825E-002  1.307184590564E-002
   3.300000000000E+001  6.586760393859E-003  0.000000000000E+000  6.586760393859E-003  8.853794764963E-003
   3.350000000000E+001  0.000000000000E+000  0.000000000000E+000  4.820989708742E-004  1.841434969804E-002
   3.400000000000E+001  0.000000000000E+000  0.000000000000E+000  4.489373291777E-003  7.925595171667E-003
   3.450000000000E+001  0.000000000000E+000  0.000000000000E+000  9.400619272953E-003  7.864304234167E-003
   3.500000000000E+001  0.000000000000E+000  0.000000000000E+000  1.476180471894E-002  8.355726466254E-003
   3.550000000000E+001  0.000000000000E+000  0.000000000000E+000  2.115546428638E-002  8.874584237988E-003
   3.600000000000E+001  0.000000000000E+000  0.000000000000E+000  2.885375133644E-002  9.182943732147E-003
   3.650000000000E+001  0.000000000000E+000  0.000000000000E+000  3.747099422396E-002  9.135894285173E-003
   3.700000000000E+001  0.000000000000E+000  0.000000000000E+000  4.553756264279E-002  8.649581455534E-003
   3.750000000000E+001  0.000000000000E+000  0.000000000000E+000  5.039302540589E-002  8.518298063419E-003
   3.800000000000E+001  0.000000000000E+000  0.000000000000E+000  4.925572594389E-002  2.576661426577E-002
   3.850000000000E+001  0.000000000000E+000  0.000000000000E+000  4.120166800954E-002  1.298433170399E-001
   3.900000000000E+001  0.000000000000E+000  0.000000000000E+000  2.683795402159E-002  1.578840480445E-001
   3.950000000000E+001  0.000000000000E+000  0.000000000000E+000  1.591210956668E-002  1.719373783109E-001
   4.000000000000E+001  0.000000000000E+000  0.000000000000E+000  8.239056848424E-003  1.726128320034E-001
   4.050000000000E+001  0.000000000000E+000  0.000000000000E+000  4.941573562993E-003  1.623229422551E-001
   4.100000000000E+001  0.000000000000E+000  0.000000000000E+000  6.032697978493E-003  1.411836023689E-001
   4.150000000000E+001  0.000000000000E+000  0.000000000000E+000  1.031420408815E-002  1.089146131216E-001
   4.200000000000E+001  0.000000000000E+000  0.000000000000E+000  1.583397351724E-002  6.754579611599E-002
   4.250000000000E+001  0.000000000000E+000  0.000000000000E+000  2.012389892322E-002  3.348521960322E-002
   4.300000000000E+001  0.000000000000E+000  0.000000000000E+000  2.126976261144E-002  1.897882068838E-002
   4.350000000000E+001  0.000000000000E+000  0.000000000000E+000  1.926643302390E-002  1.328204368126E-002
   4.400000000000E+001  0.000000000000E+000  0.000000000000E+000  1.522128759162E-002  6.166875270947E-003
   4.450000000000E+001  0.000000000000E+000  0.000000000000E+000  1.043464307943E-002  1.414866143031E-003
   4.500000000000E+001  0.000000000000E+000  0.000000000000E+000  5.911631848185E-003  4.594680077328E-004
   4.550000000000E+001  2.189001886296E-003  0.000000000000E+000  2.189001886296E-003  1.692246451092E-004
   4.600000000000E+001  6.729628079186E-004  0.000000000000E+000  6.729628079186E-004  1.032038545692E-004
   4.650000000000E+001  2.198368024011E-005  0.000000000000E+000  2.198368024011E-005  3.131022325001E-004
   4.700000000000E+001  1.115725605026E-003  0.000000000000E+000  1.115725605026E-003  4.737096523511E-004
   4.750000000000E+001  2.292951813153E-003  0.000000000000E+000  2.292951813153E-003  7.214811965571E-004
   4.800000000000E+001  3.375411983673E-003  0.000000000000E+000  3.375411983673E-003  1.183768930560E-003
   4.850000000000E+001  4.592078938794E-003  0.000000000000E+000  4.592078938794E-003  2.072172850783E-003
   4.900000000000E+001  6.088291102522E-003  0.000000000000E+000  6.088291102522E-003  3.870830829196E-003
   4.950000000000E+001  7.964532076280E-003  0.000000000000E+000  7.964532076280E-003  7.795099941095E-003
   5.000000000000E+001  1.030575645446E-002  0.000000000000E+000  1.030575645446E-002  1.647958984817E-002
   5.050000000000E+001  1.323707686558E-002  0.000000000000E+000  1.323707686558E-002  3.311900146433E-002
   5.100000000000E+001  1.837634197724E-002  0.000000000000E+000  1.837634197724E-002  6.941102832947E-002
   5.150000000000E+001  2.321054426601E-002  0.000000000000E+000  2.321054426601E-002  8.080801073974E-002
   5.200000000000E+001  2.925163376551E-002  0.000000000000E+000  2.925163376551E-002  8.625662270846E-002
   5.250000000000E+001  3.673100233971E-002  0.000000000000E+000  3.673100233971E-002  8.727274233565E-002
   5.300000000000E+001  4.543725392859E-002  0.000000000000E+000  4.543725392859E-002  8.466170538068E-002
   5.350000000000E+001  5.439713842441E-002  0.000000000000E+000  5.439713842441E-002  7.953167464334E-002
   5.400000000000E+001  6.194985294600E-002  0.000000000000E+000  6.194985294600E-002  7.342912336486E-002
   5.450000000000E+001  6.628657233349E-002  0.000000000000E+000  6.628657233349E-002  6.796642320546E-002
   5.500000000000E+001  6.629049414201E-002  0.000000000000E+000  6.629049414201E-002  6.590056808108E-002
   5.550000000000E+001  5.941783182588E-002  0.000000000000E+000  5.941783182588E-002  6.945585964350E-002
   5.600000000000E+001  5.421774327154E-002  0.000000000000E+000  5.421774327154E-002  6.378151503881E-002
   5.650000000000E+001  4.754760195791E-002  0.000000000000E+000  4.754760195791E-002  6.037065357392E-002
   5.700000000000E+001  4.042796883210E-002  0.000000000000E+000  4.042796883210E-002  5.755141215465E-002
   5.750000000000E+001  3.358605249719E-002  0.000000000000E+000  3.358605249719E-002  5.513174060944E-002
   5.800000000000E+001  2.738970438397E-002  0.000000000000E+000  2.738970438397E-002  5.344322687129E-002
   5.850000000000E+001  2.191576090888E-002  0.000000000000E+000  2.191576090888E-002  5.292608757456E-002
   5.900000000000E+001  1.704990214010E-002  0.000000000000E+000  1.704990214010E-002  5.406791133931E-002
   5.950000000000E+001  1.255146220505E-002  0.000000000000E+000  1.255146220505E-002  5.766846920315E-002
   6.000000000000E+001  8.059951141576E-003  0.000000000000E+000  8.059951141576E-003  6.588818231289E-002
   6.050000000000E+001  3.049362930691E-003  0.000000000000E+000  3.049362930691E-003  8.424653702926E-002
   6.100000000000E+001  8.338653980626E-005  0.000000000000E+000  8.338653980626E-005  9.434228265857E-002
   6.150000000000E+001  3.081960818657E-003  0.000000000000E+000  3.081960818657E-003  7.425778473355E-002
   6.200000000000E+001  6.948930872523E-003  0.000000000000E+000  6.948930872523E-003  4.544631950921E-002
   6.250000000000E+001  1.009349079719E-002  0.000000000000E+000  1.009349079719E-002  2.513105188463E-003
   6.300000000000E+001  8.735718006449E-003  0.000000000000E+000  8.735718006449E-003  1.248444817364E-002
   6.350000000000E+001  1.109111792050E-002  0.000000000000E+000  1.109111792050E-002  1.723577064256E-002
   6.400000000000E+001  1.278175400274E-002  0.000000000000E+000  1.278175400274E-002  2.227060310176E-002
   6.450000000000E+001  1.364373411669E-002  0.000000000000E+000  1.364373411669E-002  2.835545548463E-002
   6.500000000000E+001  1.370812959898E-002  0.000000000000E+000  1.370812959898E-002  3.571803607310E-002
   6.550000000000E+001  1.316990110597E-002  0.000000000000E+000  1.316990110597E-002  4.413581020666E-002
   6.600000000000E+001  1.227465804455E-002  0.000000000000E+000  1.227465804455E-002  5.320891877511E-002
   6.650000000000E+001  1.120040592085E-002  0.000000000000E+000  1.120040592085E-002  6.256754813685E-002
   6.700000000000E+001  9.985055965369E-003  0.000000000000E+000  9.985055965369E-003  7.171896817906E-002
   6.750000000000E+001  8.716996697563E-003  0.000000000000E+000  8.716996697563E-003  7.909353530931E-002
   6.800000000000E+001  7.663848490398E-003  0.000000000000E+000  7.663848490398E-003  8.296116335717E-002
   6.850000000000E+001  6.906317433282E-003  0.000000000000E+000  6.906317433282E-003  8.386568770210E-002
   6.900000000000E+001  6.422065414722E-003  0.000000000000E+000  6.422065414722E-003  8.182418028016E-002
   6.950000000000E+001  5.310459144944E-003  0.000000000000E+000  5.310459144944E-003  2.725015701413E-002
   7.000000000000E+001  5.270259777040E-003  0.000000000000E+000  5.270259777040E-003  2.051692601248E-002
   7.050000000000E+001  5.588185238129E-003  0.000000000000E+000  5.588185238129E-003  1.691926063779E-002
   7.100000000000E+001  6.304069477204E-003  0.000000000000E+000  6.304069477204E-003  1.515190345750E-002
   7.150000000000E+001  7.457158301854E-003  0.000000000000E+000  7.457158301854E-003  1.437134930886E-002
   7.200000000000E+001  9.078666648261E-003  0.000000000000E+000  9.078666648261E-003  1.199142175402E-002
   7.250000000000E+001  1.118763729085E-002  0.000000000000E+000  1.118763729085E-002  3.276979204893E-002
   7.300000000000E+001  1.604537330986E-002  0.000000000000E+000  1.604537330986E-002  3.020261778427E-002
   7.350000000000E+001  1.843752988482E-002  0.000000000000E+000  1.843752988482E-002  2.527994280444E-002
   7.400000000000E+001  2.049405939232E-002  0.000000000000E+000  2.049405939232E-002  2.173759332748E-002
   7.450000000000E+001  2.182661429224E-002  0.000000000000E+000  2.182661429224E-002  1.949747316781E-002
   7.500000000000E+001  2.216045498109E-002  0.000000000000E+000  2.216045498109E-002  1.863650952357E-002
   7.550000000000E+001  2.144535458347E-002  0.000000000000E+000  2.144535458347E-002  1.948520601099E-002
   7.600000000000E+001  1.985726661678E-002  0.000000000000E+000  1.985726661678E-002  2.281164292162E-002
   7.650000000000E+001  1.771457331392E-002  0.000000000000E+000  1.771457331392E-002  3.005308513616E-002
   7.700000000000E+001  1.538143474798E-002  0.000000000000E+000  1.538143474798E-002  4.319429261930E-002
   7.750000000000E+001  1.322266373238E-002  0.000000000000E+000  1.322266373238E-002  6.281647202191E-002
   7.800000000000E+001  1.157398713616E-002  0.000000000000E+000  1.157398713616E-002  8.528822263205E-002
   7.850000000000E+001  1.061253807123E-002  0.000000000000E+000  1.061253807123E-002  1.043332376622E-001
   7.900000000000E+001  1.026253965859E-002  0.000000000000E+000  1.026253965859E-002  1.160254739472E-001
   7.950000000000E+001  1.028747308827E-002  0.000000000000E+000  1.028747308827E-002  1.202552413084E-001
   8.000000000000E+001  1.045160273141E-002  0.000000000000E+000  1.045160273141E-002  1.188881295153E-001
   8.050000000000E+001  1.059229233160E-002  0.000000000000E+000  1.059229233160E-002  1.135915230222E-001
   8.100000000000E+001  1.062998259330E-002  0.000000000000E+000  1.062998259330E-002  1.054868334100E-001
   8.150000000000E+001  1.055341401281E-002  0.000000000000E+000  1.055341401281E-002  9.574451905011E-002
   8.200000000000E+001  1.038779942953E-002  0.000000000000E+000  1.038779942953E-002  8.540002162187E-002
   8.250000000000E+001  1.015013077365E-002  0.000000000000E+000  1.015013077365E-002  7.547323622176E-002
   8.300000000000E+001  9.824009225156E-003  0.000000000000E+000  9.824009225156E-003  6.660936198001E-002
   8.350000000000E+001  9.346060643787E-003  0.000000000000E+000  9.346060643787E-003  5.916846475887E-002
   8.400000000000E+001  8.616437835596E-003  0.000000000000E+000  8.616437835596E-003  5.309792247917E-002
   8.450000000000E+001  7.542186736078E-003  0.000000000000E+000  7.542186736078E-003  4.802493560249E-002
   8.500000000000E+001  6.120869032901E-003  0.000000000000E+000  6.120869032901E-003  4.341377843813E-002
   8.550000000000E+001  4.523434568608E-003  0.000000000000E+000  4.523434568608E-003  3.842407456804E-002
   8.600000000000E+001  3.067387778880E-003  0.000000000000E+000  3.067387778880E-003  3.199472140270E-002
   8.650000000000E+001  2.039434786358E-003  0.000000000000E+000  2.039434786358E-003  2.269517964907E-002
   8.700000000000E+001  1.474896077667E-003  0.000000000000E+000  1.474896077667E-003  9.383350201125E-003
   8.750000000000E+001  6.712838418325E-004  0.000000000000E+000  6.712838418325E-004  8.616465381310E-004
   8.800000000000E+001  9.747623869364E-005  0.000000000000E+000  9.747623869364E-005  4.997232734106E-005
   8.850000000000E+001  1.506913951628E-003  0.000000000000E+000  1.506913951628E-003  1.780552500778E-003
   8.900000000000E+001  4.637205263074E-003  0.000000000000E+000  4.637205263074E-003  9.843821125952E-003
   8.950000000000E+001  8.642969498498E-003  0.000000000000E+000  8.642969498498E-003  2.182208276542E-002
   9.000000000000E+001  1.330131823836E-002  0.000000000000E+000  1.330131823836E-002  3.469472506478E-002
   9.050000000000E+001  1.839729328095E-002  0.000000000000E+000  1.839729328095E-002  4.645060049909E-002
   9.100000000000E+001  2.371439606593E-002  0.000000000000E+000  2.371439606593E-002  5.566199900809E-002
   9.150000000000E+001  2.907592856986E-002  0.000000000000E+000  2.907592856986E-002  6.171641600024E-002
